# I[A], B [T]
1.0 , 0.138 
1.4 , 0.205
1.8 , 0.278
2.0 , 0.308
2.2 , 0.335
2.4 , 0.362
2.8 , 0.421
3.2 , 0.484
3.6 , 0.544
3.8 , 0.585
4.0 , 0.621
4.2 , 0.663
4.4 , 0.688
4.8 , 0.815
5.0 , 0.862
5.2 , 0.885
5.4 , 0.970
5.6 , 1.064
5.8 , 1.108
6.0 , 1.155